time stamp[ns], 	x[VO], 	y, 	z, 	dx[m/s], 	dy, 	dz, 	qx, 	qy, 	qz, 	qw, 	x[VIVE], 	y, 	z, 	dx[m/s], 	dy, 	dz, 	qx, 	qy, 	qz, 	qw
1520352344377022013,	-0.735293,	2.50867,	-0.419621,	-0.00162083,	-0.000137886,	0.000901981,	0.0197839,	0.0128999,	-0.0191506,	0.999538,	-0.830878,	2.61899,	-0.128708,	-0.00164429,	-0.000424633,	0.000944683,	-0.0970481,	0.664602,	0.733939,	-0.101094
1520352344423389215,	-0.735804,	2.50944,	-0.418999,	-0.0111101,	0.0168956,	0.0135179,	0.0190491,	0.0122463,	-0.0185169,	0.999572,	-0.831306,	2.61964,	-0.128078,	-0.00929466,	0.0141666,	0.013705,	-0.0976222,	0.664671,	0.733808,	-0.101034
1520352344469338705,	-0.736351,	2.51015,	-0.418743,	-0.0121584,	0.0156602,	0.0056959,	0.0172241,	0.0107492,	-0.0166647,	0.999655,	-0.832156,	2.62024,	-0.127585,	-0.0188848,	0.0133213,	0.0109426,	-0.0982184,	0.664783,	0.733644,	-0.100912
1520352344515462928,	-0.736825,	2.51056,	-0.417916,	-0.010307,	0.00901659,	0.0179707,	0.0197628,	0.011145,	-0.0177704,	0.999585,	-0.832888,	2.62107,	-0.127297,	-0.0159305,	0.0180632,	0.00626574,	-0.0985353,	0.665133,	0.733337,	-0.100529
1520352344563426937,	-0.737157,	2.51103,	-0.417572,	-0.00705029,	0.0100244,	0.00731891,	0.0191056,	0.0107891,	-0.0170167,	0.999614,	-0.834058,	2.6221,	-0.126747,	-0.0248895,	0.0218789,	0.0117131,	-0.099074,	0.665764,	0.732745,	-0.100132
1520352344609967228,	-0.737505,	2.51157,	-0.416798,	-0.00757971,	0.0116286,	0.0168291,	0.0185826,	0.00998853,	-0.0174032,	0.999626,	-0.834058,	2.6221,	-0.126747,	0,	0,	0,	-0.099074,	0.665764,	0.732745,	-0.100132
1520352344655664466,	-0.73789,	2.51091,	-0.41616,	-0.00854044,	-0.0147155,	0.0141897,	0.0104241,	0.0117464,	-0.015976,	0.999749,	-0.834263,	2.62159,	-0.12276,	-0.0045432,	-0.011491,	0.0885839,	-0.0981602,	0.671648,	0.727348,	-0.101085
1520352344707305368,	-0.738471,	2.51062,	-0.415683,	-0.0114073,	-0.00566319,	0.00933915,	0.0187291,	0.00880678,	-0.0173828,	0.999635,	-0.834582,	2.62007,	-0.124961,	-0.00625977,	-0.0297926,	-0.0431569,	-0.0971266,	0.675609,	0.723751,	-0.101502
1520352344753525489,	-0.739026,	2.51176,	-0.415726,	-0.0120568,	0.0248428,	-0.000924661,	0.0180661,	0.008402,	-0.0176748,	0.999645,	-0.834589,	2.61851,	-0.128671,	-0.000164149,	-0.0338781,	-0.0806468,	-0.0961028,	0.678556,	0.721188,	-0.101059
1520352344806002685,	-0.739731,	2.51175,	-0.416455,	-0.0135636,	-0.0001419,	-0.0140291,	0.0163832,	0.00929595,	-0.0204621,	0.999613,	-0.83515,	2.61921,	-0.129495,	-0.0107848,	0.0134186,	-0.015847,	-0.0966877,	0.677497,	0.7222,	-0.100383
1520352344856273455,	-0.740182,	2.51179,	-0.416211,	-0.0090209,	0.000702868,	0.00488649,	0.0179498,	0.00728044,	-0.0189458,	0.999633,	-0.835496,	2.61955,	-0.129943,	-0.00692502,	0.00685867,	-0.00895051,	-0.0967625,	0.674769,	0.724796,	-0.0999764
1520352344913530828,	-0.740766,	2.51157,	-0.416814,	-0.0102333,	-0.0037565,	-0.0105751,	0.0182947,	0.00732235,	-0.0209071,	0.999587,	-0.835701,	2.62019,	-0.128677,	-0.00359661,	0.0112684,	0.0221963,	-0.0974864,	0.670306,	0.728588,	-0.101713
1520352344959884047,	-0.741035,	2.51209,	-0.415825,	-0.0058653,	0.0112185,	0.0215033,	0.0196906,	0.010088,	-0.0188586,	0.999577,	-0.835701,	2.62019,	-0.128677,	0,	0,	0,	-0.0974864,	0.670306,	0.728588,	-0.101713
1520352345010631767,	-0.741456,	2.5125,	-0.416996,	-0.00840769,	0.0082934,	-0.023434,	0.0174453,	0.0104231,	-0.0166943,	0.999654,	-0.835296,	2.62081,	-0.128333,	0.00811765,	0.0124323,	0.00688858,	-0.0965114,	0.668697,	0.73009,	-0.102466
1520352345054750820,	-0.741522,	2.51314,	-0.416723,	-0.00151679,	0.0144341,	0.00621896,	0.0245995,	0.0112304,	-0.0171054,	0.999488,	-0.835238,	2.62163,	-0.128556,	0.00131892,	0.0184651,	-0.00507309,	-0.0952923,	0.667665,	0.731115,	-0.103022
1520352345117943251,	-0.741665,	2.5124,	-0.41824,	-0.00226519,	-0.0117097,	-0.0240896,	0.0292812,	0.0140313,	-0.021244,	0.999247,	-0.83457,	2.62307,	-0.128879,	0.0105886,	0.0228879,	-0.00512828,	-0.0935875,	0.664553,	0.733863,	-0.105149
1520352345182274077,	-0.741851,	2.51461,	-0.417236,	-0.00290565,	0.0345331,	0.0156912,	0.0223819,	0.0142811,	-0.0184486,	0.999477,	-0.83406,	2.62263,	-0.128669,	0.00797494,	-0.00685937,	0.00329252,	-0.0932503,	0.661615,	0.736404,	-0.106198
1520352345249194266,	-0.742733,	2.51438,	-0.415416,	-0.0133583,	-0.00352103,	0.0275738,	0.0136312,	0.0235415,	-0.0132285,	0.999542,	-0.834451,	2.62278,	-0.128682,	-0.00592436,	0.0023219,	-0.000209744,	-0.0933862,	0.658864,	0.738772,	-0.106736
1520352345299733266,	-0.742286,	2.51624,	-0.418804,	0.00894001,	0.0372725,	-0.0677564,	0.0188281,	0.0192536,	-0.0235227,	0.999361,	-0.835169,	2.62312,	-0.12869,	-0.0143568,	0.00684571,	-0.000155016,	-0.0940378,	0.656419,	0.740789,	-0.107251
1520352345346093870,	-0.742509,	2.51848,	-0.417388,	-0.00484862,	0.0486533,	0.0307847,	0.0274728,	0.0182315,	-0.00818198,	0.999423,	-0.835715,	2.62254,	-0.128617,	-0.0118738,	-0.0127143,	0.00158995,	-0.0946333,	0.652436,	0.74415,	-0.107762
1520352345394012578,	-0.743736,	2.51846,	-0.417976,	-0.0261192,	-0.000402593,	-0.0125028,	0.0327487,	0.0184764,	-0.0139555,	0.999195,	-0.837141,	2.62087,	-0.128685,	-0.0303307,	-0.0355699,	-0.00144398,	-0.095855,	0.648008,	0.747929,	-0.107236
1520352345447504623,	-0.744506,	2.52014,	-0.419825,	-0.0145109,	0.0316555,	-0.0348895,	0.0322931,	0.0181625,	-0.0115701,	0.999246,	-0.83845,	2.61901,	-0.128944,	-0.0247087,	-0.0350559,	-0.00488682,	-0.0975629,	0.643676,	0.751543,	-0.106516
1520352345503794279,	-0.745172,	2.52027,	-0.41877,	-0.0118996,	0.00232728,	0.0188426,	0.0424479,	0.0181255,	-0.0106443,	0.998878,	-0.839911,	2.61677,	-0.128704,	-0.0260921,	-0.0400214,	0.00427839,	-0.0992508,	0.639107,	0.75533,	-0.105682
1520352345568486886,	-0.746442,	2.52072,	-0.419156,	-0.0198473,	0.00695551,	-0.00603454,	0.0496498,	0.0172181,	-0.0100687,	0.998568,	-0.84223,	2.6119,	-0.128608,	-0.0362262,	-0.0760123,	0.0014989,	-0.103515,	0.629194,	0.763113,	-0.10516
1520352345621051115,	-0.747427,	2.51951,	-0.418975,	-0.0189385,	-0.0230986,	0.00348101,	0.0564325,	0.0158351,	-0.00931429,	0.998237,	-0.843178,	2.60819,	-0.12908,	-0.0182397,	-0.0714581,	-0.00907037,	-0.106475,	0.622526,	0.768119,	-0.105445
1520352345669402393,	-0.748421,	2.5192,	-0.419239,	-0.0207167,	-0.00652466,	-0.00551136,	0.0640788,	0.0150894,	-0.00730284,	0.997804,	-0.844571,	2.60452,	-0.129161,	-0.0290243,	-0.0764621,	-0.00169245,	-0.109305,	0.615964,	0.77307,	-0.104899
1520352345720027616,	-0.748882,	2.52002,	-0.41885,	-0.00922119,	0.0163976,	0.00778831,	0.0723914,	0.0136524,	-0.00133065,	0.997282,	-0.845449,	2.6003,	-0.129633,	-0.0175471,	-0.0842973,	-0.00942711,	-0.112305,	0.609449,	0.77781,	-0.10474
1520352345767111877,	-0.749701,	2.51887,	-0.420183,	-0.0174102,	-0.0243774,	-0.02837,	0.0840523,	0.0119661,	-0.00133354,	0.996389,	-0.846239,	2.5967,	-0.130033,	-0.0168024,	-0.0766508,	-0.00852636,	-0.114166,	0.603222,	0.782468,	-0.104078
1520352345814752015,	-0.749907,	2.51898,	-0.420197,	-0.00438974,	0.00231236,	-0.000279939,	0.0857167,	0.0120894,	0.0017611,	0.996245,	-0.846765,	2.59337,	-0.130716,	-0.0112072,	-0.0709082,	-0.0145258,	-0.115411,	0.597938,	0.78635,	-0.103948
1520352345859180863,	-0.750422,	2.51802,	-0.420423,	-0.0117019,	-0.0218349,	-0.00514363,	0.0924927,	0.0108553,	0.00246441,	0.995651,	-0.846765,	2.59337,	-0.130716,	0,	0,	0,	-0.115411,	0.597938,	0.78635,	-0.103948
1520352345903399534,	-0.750942,	2.51721,	-0.421035,	-0.0118193,	-0.0183734,	-0.0139232,	0.0993267,	0.0103442,	0.00433064,	0.994992,	-0.847434,	2.59084,	-0.129651,	-0.0152073,	-0.057513,	0.0242152,	-0.110353,	0.592338,	0.790993,	-0.106242
1520352345955383608,	-0.750946,	2.51734,	-0.421313,	-7.99858e-05,	0.00246975,	-0.00543481,	0.104487,	0.00912574,	0.00867056,	0.994447,	-0.847903,	2.58847,	-0.130315,	-0.00919173,	-0.0463789,	-0.0130325,	-0.101718,	0.585425,	0.796887,	-0.109098
1520352346007027928,	-0.751445,	2.51511,	-0.42236,	-0.00979143,	-0.0436704,	-0.0205359,	0.110829,	0.00942089,	0.00498203,	0.993782,	-0.848051,	2.58472,	-0.135553,	-0.00289139,	-0.0736216,	-0.102693,	-0.104775,	0.57998,	0.800754,	-0.106945
1520352346060259567,	-0.751641,	2.51369,	-0.422957,	-0.00369081,	-0.0268875,	-0.0112584,	0.11608,	0.00932917,	0.00626181,	0.993176,	-0.847794,	2.58088,	-0.136514,	0.00484532,	-0.0724015,	-0.0181498,	-0.101474,	0.572584,	0.806389,	-0.107647
1520352346109745625,	-0.751769,	2.51217,	-0.424704,	-0.00261351,	-0.0308958,	-0.0356557,	0.125004,	0.00853376,	0.00610131,	0.992101,	-0.847244,	2.57703,	-0.139518,	0.0112137,	-0.0785337,	-0.0613039,	-0.103853,	0.566474,	0.810633,	-0.105806
1520352346154380022,	-0.75147,	2.51059,	-0.426673,	0.00680702,	-0.0359105,	-0.0447536,	0.132857,	0.00933745,	0.00772446,	0.991061,	-0.846613,	2.57243,	-0.142476,	0.0143387,	-0.104495,	-0.067209,	-0.105372,	0.561033,	0.81434,	-0.104824
1520352346201292960,	-0.75138,	2.50963,	-0.428711,	0.00195009,	-0.0209651,	-0.0442987,	0.138686,	0.00973214,	0.00740805,	0.990261,	-0.845772,	2.56774,	-0.144228,	0.0182825,	-0.101956,	-0.0381043,	-0.107292,	0.555289,	0.818083,	-0.104318
1520352346254503532,	-0.750771,	2.50792,	-0.43011,	0.0114938,	-0.0323468,	-0.0263986,	0.146109,	0.010537,	0.00856642,	0.989175,	-0.845302,	2.56353,	-0.147298,	0.00887651,	-0.0794004,	-0.0579122,	-0.106985,	0.548238,	0.822955,	-0.103603
1520352346311122208,	-0.750594,	2.50741,	-0.432096,	0.00316038,	-0.00901532,	-0.0354645,	0.150326,	0.0109323,	0.00889832,	0.988536,	-0.844902,	2.55948,	-0.149475,	0.00713699,	-0.0724184,	-0.0388828,	-0.108711,	0.542084,	0.826867,	-0.103041
1520352346364954597,	-0.750324,	2.50527,	-0.43429,	0.00509741,	-0.0404799,	-0.0414027,	0.15706,	0.0118973,	0.010376,	0.987463,	-0.842887,	2.54989,	-0.154071,	0.0380329,	-0.180932,	-0.0867192,	-0.108885,	0.527073,	0.836532,	-0.102723
1520352346412697954,	-0.75002,	2.50485,	-0.4365,	0.00645125,	-0.00872868,	-0.0470181,	0.166289,	0.0115122,	0.0103422,	0.985956,	-0.841116,	2.5462,	-0.156587,	0.0376709,	-0.0785799,	-0.0535158,	-0.108565,	0.520074,	0.840681,	-0.104841
1520352346462958019,	-0.749535,	2.50217,	-0.43768,	0.00971519,	-0.0536377,	-0.0236061,	0.174863,	0.0134357,	0.0115867,	0.984433,	-0.839712,	2.54269,	-0.159384,	0.0280836,	-0.0701159,	-0.0559443,	-0.109538,	0.514724,	0.843774,	-0.105383
1520352346510481739,	-0.748788,	2.50151,	-0.439656,	0.0158856,	-0.0140744,	-0.0420349,	0.182106,	0.015279,	0.0142944,	0.983056,	-0.839712,	2.54269,	-0.159384,	0,	0,	0,	-0.109538,	0.514724,	0.843774,	-0.105383
1520352346559655432,	-0.748169,	2.49999,	-0.441434,	0.0126247,	-0.0310278,	-0.0362857,	0.187208,	0.0164811,	0.0149902,	0.982068,	-0.838658,	2.53871,	-0.161324,	0.0215111,	-0.0813351,	-0.0396054,	-0.110081,	0.507894,	0.84786,	-0.105165
1520352346605200313,	-0.747817,	2.50033,	-0.443575,	0.00782336,	0.00742948,	-0.0475774,	0.192803,	0.0180047,	0.013479,	0.98098,	-0.83832,	2.53577,	-0.163604,	0.00749951,	-0.0651841,	-0.0506493,	-0.11215,	0.503411,	0.850141,	-0.106111
1520352346650627780,	-0.747433,	2.49885,	-0.444063,	0.00854763,	-0.032804,	-0.0108414,	0.196398,	0.0183807,	0.0165498,	0.980212,	-0.837705,	2.5308,	-0.165655,	0.0136788,	-0.110443,	-0.0455754,	-0.113807,	0.495743,	0.854494,	-0.105489
1520352346703063066,	-0.747514,	2.49743,	-0.445695,	-0.00156208,	-0.0273844,	-0.0313809,	0.204288,	0.0183173,	0.0172491,	0.978587,	-0.837397,	2.52614,	-0.168581,	0.00591541,	-0.0896533,	-0.0562736,	-0.116804,	0.488305,	0.858371,	-0.105429
1520352346752846901,	-0.747066,	2.49547,	-0.446182,	0.00914666,	-0.0398289,	-0.00994499,	0.214385,	0.0181458,	0.0187902,	0.9764,	-0.836984,	2.51878,	-0.17124,	0.00842488,	-0.150217,	-0.0542639,	-0.120439,	0.477055,	0.86438,	-0.103731
1520352346799489270,	-0.746734,	2.49442,	-0.448617,	0.00720948,	-0.0229745,	-0.0529466,	0.217864,	0.0172433,	0.0203587,	0.975614,	-0.836693,	2.51202,	-0.174316,	0.00632709,	-0.147036,	-0.0668711,	-0.123609,	0.466651,	0.869712,	-0.102757
1520352346847878301,	-0.746403,	2.49253,	-0.450198,	0.00689455,	-0.0392847,	-0.0329205,	0.227281,	0.0167889,	0.0234173,	0.973403,	-0.83586,	2.50345,	-0.175231,	0.0173622,	-0.178521,	-0.0190615,	-0.128905,	0.451222,	0.877329,	-0.100376
1520352346896575725,	-0.746055,	2.49132,	-0.452456,	0.00725593,	-0.0252966,	-0.0470593,	0.235985,	0.0150097,	0.0235243,	0.971356,	-0.835747,	2.49914,	-0.18169,	0.00235343,	-0.089716,	-0.134561,	-0.129538,	0.444701,	0.880488,	-0.101002
1520352346942564302,	-0.745775,	2.48918,	-0.454737,	0.00620701,	-0.0475773,	-0.0506834,	0.243959,	0.0145259,	0.0268445,	0.969305,	-0.834869,	2.49456,	-0.185744,	0.0195031,	-0.101739,	-0.0900977,	-0.128244,	0.43787,	0.883963,	-0.102138
1520352346990094858,	-0.745412,	2.48791,	-0.457031,	0.00772512,	-0.0268945,	-0.0488,	0.250015,	0.0140184,	0.0275906,	0.967747,	-0.83456,	2.49128,	-0.187672,	0.00659098,	-0.0698425,	-0.0410228,	-0.128192,	0.43336,	0.886062,	-0.103247
1520352347038965413,	-0.745267,	2.48696,	-0.459579,	0.00303503,	-0.0199295,	-0.0530865,	0.254886,	0.0137598,	0.0289402,	0.96644,	-0.833201,	2.48811,	-0.190796,	0.0283087,	-0.0660285,	-0.0650797,	-0.126682,	0.429342,	0.888083,	-0.104528
1520352347086250006,	-0.744434,	2.48531,	-0.460885,	0.0177208,	-0.0350467,	-0.0277908,	0.262031,	0.0123381,	0.03097,	0.964483,	-0.832231,	2.48539,	-0.194489,	0.0206295,	-0.0578833,	-0.0785794,	-0.125935,	0.425805,	0.889869,	-0.104709
1520352347128594815,	-0.744672,	2.48395,	-0.463481,	-0.00565924,	-0.0323415,	-0.0618075,	0.262513,	0.0147917,	0.0315043,	0.9643,	-0.830982,	2.48184,	-0.198532,	0.0297414,	-0.0844227,	-0.0962586,	-0.125186,	0.421416,	0.89209,	-0.104463
1520352347173565472,	-0.743647,	2.48219,	-0.464056,	0.0232915,	-0.0398851,	-0.0130596,	0.268,	0.0151205,	0.032167,	0.962763,	-0.830255,	2.47789,	-0.201396,	0.0165337,	-0.0899456,	-0.0650844,	-0.126188,	0.415708,	0.894669,	-0.104071
1520352347224147467,	-0.743234,	2.4813,	-0.466991,	0.00825176,	-0.0178254,	-0.0587129,	0.273583,	0.0166216,	0.0303415,	0.961226,	-0.829958,	2.47378,	-0.205413,	0.00592463,	-0.0821107,	-0.0803489,	-0.127823,	0.408751,	0.897735,	-0.10323
1520352347283903848,	-0.742878,	2.48123,	-0.469815,	0.00603808,	-0.00123049,	-0.0478517,	0.274208,	0.0169301,	0.0294146,	0.961071,	-0.829815,	2.46967,	-0.20915,	0.0024255,	-0.0697631,	-0.0633277,	-0.129752,	0.401478,	0.900861,	-0.102124
1520352347333026997,	-0.742015,	2.47932,	-0.470771,	0.0176032,	-0.0390022,	-0.0195269,	0.288182,	0.0154847,	0.0325213,	0.956898,	-0.829497,	2.46607,	-0.212564,	0.00648521,	-0.0734066,	-0.0696832,	-0.131815,	0.395327,	0.903368,	-0.101332
1520352347383370003,	-0.741341,	2.47718,	-0.472182,	0.0134835,	-0.0428707,	-0.0282147,	0.296463,	0.0143451,	0.0335477,	0.954347,	-0.829148,	2.46368,	-0.21553,	0.00697901,	-0.0477721,	-0.059329,	-0.133858,	0.391122,	0.904924,	-0.101081
1520352347426459602,	-0.740952,	2.47694,	-0.474357,	0.00904082,	-0.00554233,	-0.0505798,	0.302625,	0.012654,	0.0343233,	0.952407,	-0.828803,	2.46081,	-0.218177,	0.00803629,	-0.0667646,	-0.0615498,	-0.13528,	0.386906,	0.906583,	-0.100552
1520352347477970784,	-0.740468,	2.4753,	-0.476002,	0.00950231,	-0.0322116,	-0.0322464,	0.307676,	0.0120403,	0.0365555,	0.950713,	-0.828464,	2.45911,	-0.220911,	0.00665351,	-0.0333287,	-0.0536124,	-0.13602,	0.383514,	0.907928,	-0.10041
1520352347527410312,	-0.740341,	2.47579,	-0.477511,	0.00258448,	0.0100529,	-0.0308105,	0.312014,	0.0114776,	0.0370798,	0.949284,	-0.828109,	2.45733,	-0.2235,	0.00724277,	-0.0362814,	-0.0528329,	-0.136631,	0.379786,	0.909432,	-0.100137
1520352347574575064,	-0.740232,	2.47488,	-0.479086,	0.00231394,	-0.0193586,	-0.0334957,	0.316316,	0.0111864,	0.0376022,	0.947842,	-0.827335,	2.45566,	-0.225938,	0.0164601,	-0.0354795,	-0.0518727,	-0.136333,	0.375732,	0.911205,	-0.0997213
1520352347625146083,	-0.739494,	2.47429,	-0.480378,	0.0147615,	-0.0116887,	-0.0258563,	0.320368,	0.0114651,	0.038384,	0.946446,	-0.826905,	2.45424,	-0.227994,	0.00860744,	-0.0284642,	-0.0411111,	-0.136626,	0.373006,	0.912304,	-0.0995014
1520352347673496176,	-0.739086,	2.4732,	-0.482038,	0.00850366,	-0.0227634,	-0.0345705,	0.320013,	0.0123148,	0.0354357,	0.94667,	-0.826788,	2.4533,	-0.229829,	0.00242063,	-0.0196577,	-0.0382272,	-0.137107,	0.371005,	0.913039,	-0.0995808
1520352347722733956,	-0.738802,	2.47227,	-0.483012,	0.00580111,	-0.0189206,	-0.0198759,	0.322979,	0.0124619,	0.0357893,	0.945647,	-0.826592,	2.45117,	-0.232152,	0.00400208,	-0.0433337,	-0.0474167,	-0.137089,	0.366819,	0.914788,	-0.0990618
1520352347773046886,	-0.738287,	2.47278,	-0.484241,	0.0102916,	0.0100378,	-0.024587,	0.325457,	0.0121994,	0.0360788,	0.94479,	-0.82594,	2.44853,	-0.235394,	0.0130489,	-0.0529617,	-0.0648437,	-0.136245,	0.361394,	0.917152,	-0.0983083
1520352347825719011,	-0.738105,	2.47275,	-0.485119,	0.00351374,	-0.000451023,	-0.0168862,	0.329802,	0.0123005,	0.0368796,	0.943249,	-0.825528,	2.44579,	-0.238265,	0.00791379,	-0.0525289,	-0.0551984,	-0.136585,	0.35634,	0.919128,	-0.0978258
1520352347870292959,	-0.737778,	2.47148,	-0.486696,	0.00742103,	-0.028833,	-0.0358452,	0.335518,	0.0125996,	0.0358407,	0.941267,	-0.825546,	2.44395,	-0.240987,	-0.000396376,	-0.0419603,	-0.0618689,	-0.13724,	0.352475,	0.920529,	-0.0977364
1520352347914521850,	-0.737759,	2.47141,	-0.487734,	0.000438385,	-0.00164742,	-0.0235853,	0.348842,	0.00978446,	0.0397644,	0.936287,	-0.82566,	2.44231,	-0.243512,	-0.00259097,	-0.0372753,	-0.0573825,	-0.137406,	0.348645,	0.922001,	-0.0973711
1520352347957544158,	-0.737666,	2.47038,	-0.489147,	0.00215656,	-0.0240155,	-0.0328519,	0.352003,	0.00937015,	0.0401585,	0.93509,	-0.82566,	2.44231,	-0.243512,	0,	0,	0,	-0.137406,	0.348645,	0.922001,	-0.0973711
1520352348000413427,	-0.737388,	2.46993,	-0.490316,	0.00662658,	-0.0106942,	-0.0278286,	0.355566,	0.00969998,	0.0408748,	0.933706,	-0.825184,	2.44086,	-0.246391,	0.0113319,	-0.0344747,	-0.0685601,	-0.136784,	0.345007,	0.923491,	-0.0970789
1520352348064137766,	-0.737648,	2.47021,	-0.491986,	-0.0041294,	0.00452717,	-0.0265086,	0.358715,	0.0105337,	0.0410426,	0.932485,	-0.824632,	2.43791,	-0.251863,	0.00875481,	-0.0467769,	-0.08685,	-0.136347,	0.337493,	0.926407,	-0.0963227
1520352348128686118,	-0.737339,	2.47005,	-0.494074,	0.00482613,	-0.0025137,	-0.0326333,	0.355231,	0.0111699,	0.0375094,	0.933959,	-0.824778,	2.43564,	-0.254631,	-0.00227588,	-0.0355387,	-0.0432516,	-0.135816,	0.332986,	0.928213,	-0.0953693
1520352348189269850,	-0.736881,	2.46917,	-0.495104,	0.00762597,	-0.0146736,	-0.0171589,	0.360968,	0.0109616,	0.0386684,	0.931712,	-0.824685,	2.43373,	-0.257374,	0.00155735,	-0.0317768,	-0.0457212,	-0.136168,	0.32901,	0.929639,	-0.0947796
1520352348250831780,	-0.737349,	2.46873,	-0.497653,	-0.00766165,	-0.00723735,	-0.041795,	0.372052,	0.0143825,	0.0356887,	0.927414,	-0.825077,	2.43246,	-0.259491,	-0.00644033,	-0.0207714,	-0.0347083,	-0.136774,	0.325948,	0.930705,	-0.0940195
1520352348309637773,	-0.737326,	2.46792,	-0.499102,	0.000394038,	-0.0140127,	-0.0249851,	0.365178,	0.0123293,	0.0432633,	0.92985,	-0.825428,	2.43168,	-0.261097,	-0.00604138,	-0.0135621,	-0.0276893,	-0.137299,	0.323747,	0.931432,	-0.0936494
1520352348355722078,	-0.737441,	2.46761,	-0.499993,	-0.00251205,	-0.0066081,	-0.0193601,	0.373287,	0.00942666,	0.0395816,	0.926823,	-0.825652,	2.43096,	-0.262495,	-0.00487235,	-0.01555,	-0.0303874,	-0.137709,	0.321446,	0.932224,	-0.0930995
1520352348403364333,	-0.737596,	2.46782,	-0.501122,	-0.0032924,	0.00440857,	-0.0240177,	0.378607,	0.0107669,	0.0384751,	0.924695,	-0.825511,	2.43065,	-0.26303,	0.00299748,	-0.00666655,	-0.0113826,	-0.137757,	0.320421,	0.932591,	-0.0928803
1520352348454642342,	-0.737366,	2.4677,	-0.500763,	0.00451429,	-0.00243065,	0.00704118,	0.379596,	0.0102382,	0.0403026,	0.924217,	-0.825722,	2.43069,	-0.263062,	-0.00413417,	0.000876359,	-0.000631823,	-0.137405,	0.32024,	0.932728,	-0.092651
1520352348503723240,	-0.737669,	2.46681,	-0.501524,	-0.0061859,	-0.0181737,	-0.0155359,	0.378176,	0.0128081,	0.0364998,	0.924925,	-0.825574,	2.43159,	-0.262636,	0.0030291,	0.0183237,	0.00869065,	-0.136895,	0.321648,	0.932285,	-0.092986
1520352348545225345,	-0.737478,	2.46694,	-0.50088,	0.00465904,	0.00321587,	0.015714,	0.378185,	0.0120005,	0.0377466,	0.924882,	-0.825542,	2.43264,	-0.26171,	0.000763236,	0.0254674,	0.0225867,	-0.136494,	0.323305,	0.931739,	-0.0933036
