time stamp[ns], 	x[VO], 	y, 	z, 	dx[m/s], 	dy, 	dz, 	qx, 	qy, 	qz, 	qw, 	x[VIVE], 	y, 	z, 	dx[m/s], 	dy, 	dz, 	qx, 	qy, 	qz, 	qw
1520295660241756434,	0.118632,	2.47062,	-0.134979,	-0.0028574,	-0.00425777,	0.00598842,	0.0164315,	0.00808071,	-0.045717,	0.998787,	0.121543,	2.57243,	0.0763806,	-0.00538096,	-0.00454382,	0.00601149,	-0.0608775,	0.694577,	0.716067,	-0.0332448
1520295660291774912,	0.118326,	2.47277,	-0.135548,	-0.00611249,	0.0430075,	-0.0113817,	0.0174178,	0.00800828,	-0.0454578,	0.998782,	0.121394,	2.57144,	0.0760159,	-0.00297949,	-0.0197786,	-0.00729499,	-0.0606581,	0.693323,	0.717303,	-0.0331647
1520295660342312470,	0.118458,	2.47198,	-0.136078,	0.00263809,	-0.0158136,	-0.0106,	0.0201099,	0.00787753,	-0.0465952,	0.99868,	0.12086,	2.57081,	0.0755293,	-0.0106823,	-0.0126338,	-0.00973186,	-0.0598952,	0.693059,	0.717644,	-0.0327121
1520295660393642572,	0.117881,	2.47106,	-0.136409,	-0.0113164,	-0.0181503,	-0.00648827,	0.0192941,	0.00834236,	-0.0465751,	0.998694,	0.120193,	2.57092,	0.0754962,	-0.013081,	0.00216488,	-0.000647834,	-0.0591097,	0.69413,	0.716697,	-0.0321723
1520295660451150183,	0.117438,	2.47086,	-0.136751,	-0.00777158,	-0.00341414,	-0.00601025,	0.0189408,	0.00860579,	-0.0470481,	0.998676,	0.119295,	2.5707,	0.0760424,	-0.0157423,	-0.00378196,	0.0095817,	-0.0582002,	0.694674,	0.716278,	-0.031394
1520295660503928928,	0.116362,	2.47013,	-0.136613,	-0.0206936,	-0.0141275,	0.00265424,	0.0179074,	0.008795,	-0.0476169,	0.998666,	0.118376,	2.57019,	0.0769204,	-0.0176765,	-0.00985707,	0.0168854,	-0.0575415,	0.69509,	0.715983,	-0.0301073
1520295660549175471,	0.115427,	2.46743,	-0.135676,	-0.0207732,	-0.0599225,	0.020836,	0.0172027,	0.00845269,	-0.0507403,	0.998528,	0.117234,	2.5693,	0.0786645,	-0.0253705,	-0.0197043,	0.0387576,	-0.056132,	0.695218,	0.716045,	-0.0282875
1520295660605346749,	0.114545,	2.46825,	-0.134537,	-0.0157502,	0.0147271,	0.0203402,	0.0151675,	0.00821156,	-0.0521835,	0.998489,	0.115484,	2.56908,	0.0807986,	-0.0312596,	-0.00396242,	0.0381077,	-0.0552453,	0.69568,	0.715709,	-0.0271707
1520295660659024889,	0.113088,	2.46536,	-0.132904,	-0.0274911,	-0.0545552,	0.0308149,	0.0142272,	0.00804331,	-0.0557058,	0.998313,	0.112936,	2.57054,	0.0830937,	-0.0480693,	0.0275378,	0.0433047,	-0.054828,	0.699014,	0.712541,	-0.0256562
1520295660707659125,	0.110891,	2.46829,	-0.129963,	-0.0457646,	0.0609858,	0.0612569,	0.00875635,	0.00734136,	-0.0554899,	0.998394,	0.110254,	2.5735,	0.0857516,	-0.0558736,	0.0616951,	0.0553727,	-0.0531083,	0.703976,	0.707876,	-0.0225512
1520295660757313038,	0.108028,	2.46886,	-0.127201,	-0.0584436,	0.011722,	0.0563816,	0.00415338,	0.0059328,	-0.0590384,	0.998229,	0.107238,	2.57719,	0.0884411,	-0.0615629,	0.0752203,	0.0548873,	-0.0522305,	0.706229,	0.705796,	-0.0191128
1520295660813464903,	0.10642,	2.46859,	-0.124143,	-0.0287161,	-0.00481501,	0.0546078,	-0.00150549,	0.00426883,	-0.0615197,	0.998096,	0.103798,	2.5805,	0.0909647,	-0.0614183,	0.0591364,	0.0450646,	-0.0527441,	0.708186,	0.703873,	-0.0159159
1520295660868717999,	0.104627,	2.46596,	-0.120847,	-0.0325894,	-0.0478799,	0.0599211,	-0.00373639,	0.00167302,	-0.0688428,	0.997619,	0.0975413,	2.58617,	0.0952367,	-0.113764,	0.103054,	0.0776729,	-0.0583665,	0.706359,	0.705322,	-0.0130825
1520295660924174639,	0.101822,	2.4695,	-0.118568,	-0.0510012,	0.0643759,	0.0414272,	-0.00319756,	-0.00142777,	-0.0699272,	0.997546,	0.094599,	2.58979,	0.0970519,	-0.0534958,	0.0657769,	0.033004,	-0.0624605,	0.704622,	0.706683,	-0.0143567
1520295660983075033,	0.0996569,	2.47654,	-0.116243,	-0.0373309,	0.121366,	0.0401005,	-0.00847676,	-0.00509788,	-0.0678477,	0.997647,	0.0920059,	2.59435,	0.0984708,	-0.0447091,	0.0787751,	0.0244637,	-0.0662003,	0.705001,	0.705918,	-0.0164473
1520295661033225425,	0.098478,	2.47724,	-0.114254,	-0.023578,	0.0138857,	0.0397737,	-0.00229089,	-0.00695863,	-0.0649335,	0.997863,	0.0911989,	2.59873,	0.100118,	-0.0161407,	0.0875796,	0.0329511,	-0.0670736,	0.705563,	0.705237,	-0.0179742
1520295661087470836,	0.0959878,	2.48417,	-0.112765,	-0.0461138,	0.128344,	0.0275775,	0.00012657,	-0.00825941,	-0.0594715,	0.998196,	0.0908432,	2.60237,	0.102031,	-0.00658632,	0.0673037,	0.0354146,	-0.0663485,	0.706506,	0.70434,	-0.0187479
1520295661140674334,	0.0945665,	2.4906,	-0.111099,	-0.0268171,	0.121315,	0.0314249,	-0.000663941,	-0.00815389,	-0.0559206,	0.998402,	0.0908884,	2.60595,	0.103594,	0.00085233,	0.0676402,	0.0294958,	-0.0638328,	0.708986,	0.702081,	-0.0186182
1520295661193699955,	0.0941026,	2.49167,	-0.109042,	-0.00875351,	0.020241,	0.0388059,	-0.00505583,	-0.00720853,	-0.0588331,	0.998229,	0.0905692,	2.60841,	0.105438,	-0.00602354,	0.046394,	0.0347981,	-0.0607731,	0.710599,	0.700773,	-0.0165298
1520295661243249412,	0.0930988,	2.49458,	-0.106768,	-0.0204855,	0.0594624,	0.0464266,	-0.00294307,	-0.00543932,	-0.058373,	0.998276,	0.0895304,	2.6102,	0.10681,	-0.0211997,	0.0364439,	0.0279978,	-0.058569,	0.711797,	0.699802,	-0.0138427
1520295661294704313,	0.0922115,	2.49754,	-0.104922,	-0.0173976,	0.0579548,	0.0361892,	-0.00595997,	-0.00422801,	-0.0638847,	0.997931,	0.0881355,	2.61131,	0.107883,	-0.0273494,	0.0218334,	0.0210412,	-0.057899,	0.712896,	0.698777,	-0.0117368
1520295661348037663,	0.0913279,	2.49748,	-0.103152,	-0.0166714,	-0.00113,	0.0333844,	-0.0123649,	-0.00579578,	-0.0674163,	0.997631,	0.0873218,	2.61076,	0.108799,	-0.0153531,	-0.0103606,	0.0172858,	-0.0566889,	0.711816,	0.70002,	-0.00874507
1520295661400094444,	0.0898809,	2.49773,	-0.101955,	-0.0278285,	0.00493027,	0.0230332,	-0.0129143,	-0.00708933,	-0.0709499,	0.997371,	0.0862641,	2.60933,	0.109581,	-0.0203408,	-0.027439,	0.0150386,	-0.0557236,	0.709382,	0.7026,	-0.00501246
1520295661450256596,	0.0894937,	2.49679,	-0.101339,	-0.00774318,	-0.018871,	0.0123239,	-0.0110054,	-0.00805742,	-0.0754044,	0.99706,	0.0860152,	2.60815,	0.10997,	-0.00497825,	-0.0236291,	0.00777645,	-0.0542996,	0.708882,	0.703233,	-0.00106805
1520295661503649918,	0.0891021,	2.49724,	-0.101027,	-0.00738889,	0.00843751,	0.00587727,	-0.0117118,	-0.00989614,	-0.0783985,	0.996804,	0.0855195,	2.60817,	0.110032,	-0.00935268,	0.000402418,	0.00115859,	-0.0531232,	0.709287,	0.702913,	0.00214071
1520295661556836522,	0.0891152,	2.49554,	-0.100264,	0.000248151,	-0.0320211,	0.01439,	-0.0132478,	-0.0114727,	-0.0830366,	0.996392,	0.0850449,	2.60784,	0.110268,	-0.00895462,	-0.00628891,	0.0044601,	-0.0515517,	0.708175,	0.704136,	0.00475658
1520295661603266340,	0.0888158,	2.49715,	-0.100684,	-0.00650971,	0.0350376,	-0.00913202,	-0.0118783,	-0.012105,	-0.0840128,	0.99632,	0.084278,	2.60805,	0.110134,	-0.0166726,	0.00451488,	-0.00291141,	-0.0490227,	0.7095,	0.702953,	0.00799265
1520295661652588561,	0.0883761,	2.49576,	-0.100664,	-0.00897356,	-0.0284714,	0.00042214,	-0.013825,	-0.0127779,	-0.0894264,	0.995815,	0.0832527,	2.60684,	0.110061,	-0.0209242,	-0.0247521,	-0.00148629,	-0.0471574,	0.709219,	0.703319,	0.0112557
1520295661699935137,	0.0873353,	2.49699,	-0.100749,	-0.0221446,	0.0262345,	-0.0018117,	-0.0156311,	-0.0130925,	-0.0910966,	0.995633,	0.0820904,	2.60501,	0.109834,	-0.0247297,	-0.0388785,	-0.00483224,	-0.0484833,	0.704406,	0.708013,	0.0133422
1520295661745541696,	0.0866863,	2.49538,	-0.101042,	-0.0144229,	-0.03587,	-0.00652094,	-0.0107745,	-0.0145603,	-0.0944769,	0.995362,	0.0816646,	2.60449,	0.109016,	-0.00946227,	-0.011502,	-0.0181734,	-0.0497904,	0.702001,	0.7103,	0.013795
1520295661798009354,	0.0862747,	2.4957,	-0.10162,	-0.0079141,	0.00631187,	-0.0111057,	-0.00889999,	-0.0157062,	-0.094315,	0.995379,	0.0822641,	2.60481,	0.107949,	0.0115292,	0.00615756,	-0.0205242,	-0.050365,	0.701817,	0.710468,	0.0123295
1520295661847189704,	0.086705,	2.4954,	-0.102399,	0.00878094,	-0.00619419,	-0.0158931,	-0.00460497,	-0.0165205,	-0.0930569,	0.995513,	0.0839119,	2.60517,	0.106891,	0.0336284,	0.00722225,	-0.0215964,	-0.0489208,	0.700987,	0.711411,	0.0108621
1520295661900245275,	0.087007,	2.49636,	-0.10369,	0.00569913,	0.0180079,	-0.0243726,	-0.00280959,	-0.015941,	-0.0928195,	0.995551,	0.0851789,	2.60604,	0.105732,	0.0239051,	0.0164848,	-0.0218669,	-0.0471835,	0.702021,	0.710534,	0.00902926
1520295661949388186,	0.087703,	2.49697,	-0.104737,	0.0142029,	0.012457,	-0.0213684,	-0.00584494,	-0.0130405,	-0.0920233,	0.995654,	0.0866164,	2.60592,	0.104883,	0.0293378,	-0.00235107,	-0.0173217,	-0.0459687,	0.704188,	0.7085,	0.00580589
1520295661994232587,	0.0881092,	2.49753,	-0.106192,	0.00923232,	0.0128053,	-0.0330503,	-0.00408997,	-0.0108395,	-0.0927102,	0.995626,	0.0868001,	2.60598,	0.104604,	0.00417391,	0.00120534,	-0.00633928,	-0.0471083,	0.70405,	0.70858,	0.0028422
1520295662043648887,	0.0880913,	2.49697,	-0.106351,	-0.000364886,	-0.0114742,	-0.00324519,	-0.00697497,	-0.00887516,	-0.0885422,	0.996008,	0.0860911,	2.60591,	0.104798,	-0.0144681,	-0.00132037,	0.00395716,	-0.0502548,	0.703692,	0.708725,	-0.000931441
1520295662098264878,	0.0879237,	2.49616,	-0.106553,	-0.00310514,	-0.0150155,	-0.00373758,	-0.00613632,	-0.00669462,	-0.087865,	0.996091,	0.0852024,	2.60566,	0.104939,	-0.0164573,	-0.00464169,	0.00261535,	-0.0545787,	0.705108,	0.706977,	-0.00522976
1520295662149719835,	0.087661,	2.49498,	-0.106568,	-0.00514922,	-0.0229913,	-0.000311872,	-0.00398855,	-0.00756191,	-0.0797556,	0.996778,	0.0842273,	2.60405,	0.10528,	-0.019121,	-0.0316051,	0.00668228,	-0.0595874,	0.702998,	0.708615,	-0.0103822
1520295662195681146,	0.0872042,	2.49673,	-0.106313,	-0.0101516,	0.0387733,	0.00568466,	-0.00131858,	-0.00789491,	-0.0743199,	0.997202,	0.0835762,	2.60245,	0.105791,	-0.014468,	-0.0356551,	0.0113421,	-0.0644323,	0.699537,	0.711519,	-0.0153656
1520295662243064541,	0.0874453,	2.49393,	-0.106194,	0.00512995,	-0.059607,	0.00252088,	0.00060648,	-0.0074913,	-0.0683529,	0.997633,	0.0836178,	2.60182,	0.105562,	0.000883829,	-0.0133098,	-0.00485902,	-0.0695298,	0.698485,	0.711882,	-0.0225471
1520295662290332967,	0.0868905,	2.49607,	-0.106214,	-0.0118058,	0.0456068,	-0.000429766,	0.00818363,	-0.00658538,	-0.0587087,	0.99822,	0.0835076,	2.60169,	0.104816,	-0.0023435,	-0.00284596,	-0.0158781,	-0.0747491,	0.70046,	0.709102,	-0.0307006
1520295662338235858,	0.0871963,	2.49483,	-0.106289,	0.00650638,	-0.0264663,	-0.00158946,	0.0112671,	-0.00555446,	-0.0465994,	0.998835,	0.0833275,	2.6008,	0.104422,	-0.00383253,	-0.018871,	-0.00839092,	-0.0794214,	0.700151,	0.708512,	-0.0386203
1520295662395022685,	0.0869308,	2.49477,	-0.106672,	-0.00474114,	-0.00104098,	-0.00683304,	0.0143586,	-0.00407031,	-0.0395792,	0.999105,	0.0821895,	2.59979,	0.104228,	-0.0203219,	-0.0179956,	-0.00346553,	-0.0856656,	0.697994,	0.709399,	-0.0470984
1520295662445670878,	0.08656,	2.49511,	-0.107267,	-0.00741598,	0.00679377,	-0.0119142,	0.0207032,	-0.00176274,	-0.0312026,	0.999297,	0.0804768,	2.59827,	0.104166,	-0.0342538,	-0.0305213,	-0.00122521,	-0.091822,	0.697113,	0.708963,	-0.0545233
1520295662507740988,	0.085465,	2.49383,	-0.107606,	-0.0176597,	-0.0205745,	-0.00546748,	0.0222093,	-0.000870124,	-0.0166193,	0.999615,	0.0791135,	2.59686,	0.103957,	-0.0219885,	-0.0226153,	-0.00337962,	-0.0979877,	0.693808,	0.710786,	-0.0617393
1520295662559835266,	0.0846117,	2.4905,	-0.107843,	-0.016411,	-0.0641678,	-0.00454545,	0.029959,	0.000545658,	-0.000485507,	0.999551,	0.0777816,	2.59573,	0.103754,	-0.0256131,	-0.0217984,	-0.00390603,	-0.105296,	0.69174,	0.711003,	-0.0698732
1520295662609946289,	0.0834725,	2.49221,	-0.108437,	-0.0227832,	0.0343406,	-0.0118813,	0.0327179,	0.000989233,	0.00961797,	0.999418,	0.0765356,	2.59427,	0.103492,	-0.0249202,	-0.0290967,	-0.00522567,	-0.112478,	0.691016,	0.709828,	-0.0773922
1520295662663084115,	0.082797,	2.49162,	-0.108753,	-0.0127461,	-0.0112671,	-0.00596981,	0.0377968,	0.00148097,	0.0272628,	0.998912,	0.0756005,	2.59232,	0.103298,	-0.0176439,	-0.0369063,	-0.00367576,	-0.119829,	0.687828,	0.710759,	-0.0857624
1520295662715567146,	0.0825364,	2.49069,	-0.109103,	-0.00501025,	-0.0177368,	-0.00672808,	0.0445067,	0.00272219,	0.0464626,	0.997924,	0.0713163,	2.58772,	0.103142,	-0.0823874,	-0.088454,	-0.00298828,	-0.137667,	0.681821,	0.711278,	-0.101252
1520295662775481658,	0.0821631,	2.49104,	-0.109287,	-0.00632789,	0.0059509,	-0.0031207,	0.0404228,	0.00184587,	0.0582224,	0.997483,	0.0689814,	2.58452,	0.103449,	-0.0395749,	-0.0541982,	0.0052043,	-0.147183,	0.677649,	0.712226,	-0.108916
1520295662825780404,	0.0817382,	2.48683,	-0.109523,	-0.00849761,	-0.0843751,	-0.00470846,	0.0444852,	0.000757289,	0.0742985,	0.996243,	0.0673681,	2.5808,	0.104235,	-0.0322668,	-0.0744517,	0.0157123,	-0.155487,	0.671713,	0.714952,	-0.116057
1520295662875922288,	0.0806722,	2.4879,	-0.109498,	-0.0213207,	0.021401,	0.000496369,	0.0374915,	-0.00146023,	0.0943521,	0.994832,	0.0656354,	2.57789,	0.105127,	-0.0346541,	-0.0581436,	0.0178528,	-0.164351,	0.666368,	0.716636,	-0.123998
1520295662938310895,	0.0797338,	2.48596,	-0.108826,	-0.0151359,	-0.0312178,	0.0108398,	0.0342459,	-0.00260688,	0.110369,	0.993297,	0.0639721,	2.57687,	0.1058,	-0.0268269,	-0.0164965,	0.0108475,	-0.171921,	0.663522,	0.71615,	-0.131569
1520295662999630231,	0.0791068,	2.48266,	-0.108638,	-0.0102787,	-0.0540648,	0.00307983,	0.035106,	-0.00385286,	0.127089,	0.991262,	0.0623974,	2.57668,	0.106386,	-0.0258152,	-0.00309725,	0.00961285,	-0.179513,	0.662791,	0.713474,	-0.139418
1520295663051005318,	0.0785034,	2.48392,	-0.10768,	-0.0118302,	0.0246131,	0.0187848,	0.0220702,	-0.00505575,	0.144654,	0.989223,	0.0609317,	2.57666,	0.107323,	-0.0287384,	-0.000458343,	0.0183664,	-0.186235,	0.662449,	0.710741,	-0.146034
1520295663103539337,	0.0776406,	2.48222,	-0.106904,	-0.0165916,	-0.0326919,	0.0149193,	0.015237,	-0.00613687,	0.162514,	0.98657,	0.0598054,	2.57576,	0.108115,	-0.0216595,	-0.0172666,	0.0152285,	-0.192436,	0.660761,	0.70933,	-0.152359
1520295663152395721,	0.0771448,	2.48128,	-0.105355,	-0.01033,	-0.0196259,	0.0322775,	0.0110732,	-0.00652509,	0.168688,	0.985586,	0.0586924,	2.57389,	0.109311,	-0.0231883,	-0.0389972,	0.0249211,	-0.198783,	0.657423,	0.709444,	-0.15802
1520295663200322888,	0.0770174,	2.48048,	-0.104419,	-0.00271063,	-0.0169084,	0.0199066,	0.0077362,	-0.00800201,	0.182311,	0.983178,	0.0579053,	2.57081,	0.109919,	-0.0167469,	-0.0655195,	0.0129285,	-0.206012,	0.653515,	0.709552,	-0.164361
1520295663249707046,	0.0766931,	2.47832,	-0.103902,	-0.00661897,	-0.0440708,	0.0105604,	0.010057,	-0.00849681,	0.188484,	0.981988,	0.0564142,	2.56833,	0.110232,	-0.0304305,	-0.0505266,	0.00638441,	-0.213409,	0.649961,	0.709313,	-0.16995
1520295663299920507,	0.076408,	2.4786,	-0.103423,	-0.005701,	0.00560764,	0.00957288,	0.00517583,	-0.0107019,	0.201421,	0.979433,	0.0548437,	2.56515,	0.110599,	-0.0314094,	-0.0636663,	0.00735714,	-0.221289,	0.644582,	0.710447,	-0.17553
1520295663347439076,	0.0756429,	2.47662,	-0.103196,	-0.0162804,	-0.0420566,	0.00482958,	0.00641535,	-0.0116283,	0.207468,	0.978152,	0.0527138,	2.56345,	0.110688,	-0.0453168,	-0.0361616,	0.00188072,	-0.229382,	0.639381,	0.710961,	-0.181964
1520295663395068838,	0.0748253,	2.47758,	-0.103171,	-0.0173938,	0.0202496,	0.00052589,	0.00199386,	-0.014274,	0.219967,	0.975401,	0.0510776,	2.56238,	0.110581,	-0.0348125,	-0.0227761,	-0.00227915,	-0.237806,	0.638077,	0.707847,	-0.187775
1520295663441953169,	0.0743587,	2.47573,	-0.103142,	-0.0101444,	-0.0401159,	0.000635309,	0.00462144,	-0.0163151,	0.226754,	0.973805,	0.0502731,	2.56072,	0.11045,	-0.0174897,	-0.0361508,	-0.00284227,	-0.244856,	0.634815,	0.706806,	-0.193598
1520295663487186335,	0.0737522,	2.47508,	-0.103295,	-0.0134781,	-0.014496,	-0.00339626,	0.00287011,	-0.018227,	0.238568,	0.970951,	0.0499436,	2.558,	0.11002,	-0.00732177,	-0.0603024,	-0.0095649,	-0.250553,	0.629161,	0.708098,	-0.199941
1520295663534705035,	0.0736205,	2.47489,	-0.103706,	-0.00280166,	-0.00409326,	-0.00875722,	0.00350034,	-0.018866,	0.24491,	0.969356,	0.0498113,	2.55661,	0.109676,	-0.00281588,	-0.0296466,	-0.00730587,	-0.256153,	0.625879,	0.707343,	-0.205733
1520295663589505247,	0.073738,	2.47289,	-0.103644,	0.00217586,	-0.0368846,	0.00115066,	0.00793074,	-0.0199433,	0.250686,	0.967831,	0.0493239,	2.55438,	0.109328,	-0.00902463,	-0.0411949,	-0.00644197,	-0.262225,	0.622273,	0.706623,	-0.211418
1520295663634001450,	0.0737466,	2.47458,	-0.104713,	0.00019538,	0.0383177,	-0.0242827,	0.00869986,	-0.0182755,	0.258426,	0.965819,	0.0490848,	2.55277,	0.109165,	-0.00543486,	-0.0366352,	-0.00371042,	-0.267847,	0.618439,	0.706092,	-0.217314
1520295663680746635,	0.073563,	2.47338,	-0.104652,	-0.00399026,	-0.0261745,	0.00131075,	0.0112195,	-0.0203031,	0.265448,	0.963846,	0.0483741,	2.55114,	0.108924,	-0.0154492,	-0.0354433,	-0.0052415,	-0.27351,	0.616324,	0.704166,	-0.222459
1520295663741348367,	0.0732808,	2.47324,	-0.104984,	-0.00470431,	-0.00229379,	-0.00552404,	0.00882765,	-0.0210004,	0.275141,	0.961134,	0.0466279,	2.55039,	0.108905,	-0.0291042,	-0.0124413,	-0.000311531,	-0.279643,	0.614915,	0.701114,	-0.228293
1520295663791953457,	0.0732311,	2.47084,	-0.10487,	-0.000993511,	-0.0479607,	0.0022695,	0.00822618,	-0.0214708,	0.281347,	0.95933,	0.0447555,	2.54844,	0.108895,	-0.0374482,	-0.0390241,	-0.000203704,	-0.286549,	0.612753,	0.698535,	-0.233392
1520295663842804620,	0.0723641,	2.47251,	-0.105289,	-0.0173402,	0.0333934,	-0.00836459,	0.00839179,	-0.0229847,	0.289315,	0.956921,	0.0434626,	2.54593,	0.109124,	-0.0258572,	-0.0502651,	0.00457366,	-0.292651,	0.610326,	0.696675,	-0.237699
1520295663892954985,	0.0716814,	2.46892,	-0.104818,	-0.0136547,	-0.0717192,	0.00940512,	0.00737882,	-0.024217,	0.296485,	0.954702,	0.042224,	2.5425,	0.10958,	-0.0247728,	-0.0686367,	0.00912349,	-0.299311,	0.60566,	0.696243,	-0.242558
1520295663955907971,	0.0710931,	2.46584,	-0.104684,	-0.00948837,	-0.0498137,	0.00217102,	0.00674109,	-0.026319,	0.307304,	0.951223,	0.0411882,	2.53948,	0.110217,	-0.0167062,	-0.0486745,	0.0102706,	-0.30578,	0.600994,	0.695743,	-0.24748
1520295664014096085,	0.0704751,	2.4651,	-0.104114,	-0.010655,	-0.0127678,	0.00982304,	0.00886528,	-0.0277867,	0.31606,	0.948291,	0.0398802,	2.53664,	0.110677,	-0.0225517,	-0.0490121,	0.00793892,	-0.312683,	0.598006,	0.693524,	-0.252273
1520295664065254173,	0.0697974,	2.46375,	-0.103208,	-0.0132887,	-0.0263856,	0.0177719,	0.011804,	-0.0303103,	0.323048,	0.945824,	0.0383604,	2.53402,	0.111084,	-0.0297995,	-0.0513576,	0.00797955,	-0.319163,	0.594821,	0.69159,	-0.256955
1520295664115517179,	0.0691533,	2.46092,	-0.102639,	-0.0128815,	-0.0565615,	0.0113775,	0.0127683,	-0.0320441,	0.33387,	0.941988,	0.0376683,	2.53168,	0.111013,	-0.0138423,	-0.0466808,	-0.00142345,	-0.324211,	0.590024,	0.691208,	-0.262662
1520295664170025957,	0.0683277,	2.46297,	-0.102671,	-0.0152899,	0.0378588,	-0.000592268,	0.0167503,	-0.0326633,	0.342487,	0.938805,	0.0366548,	2.52962,	0.110928,	-0.0187686,	-0.0381721,	-0.00157758,	-0.329942,	0.586109,	0.689154,	-0.269595
1520295664221972677,	0.0675454,	2.45777,	-0.102821,	-0.015338,	-0.101916,	-0.00294143,	0.0151613,	-0.0332226,	0.349685,	0.936155,	0.0342146,	2.52755,	0.111149,	-0.0478465,	-0.0405852,	0.00433839,	-0.341246,	0.581086,	0.682816,	-0.282227
1520295664280566803,	0.0662941,	2.45837,	-0.102975,	-0.0215752,	0.0102867,	-0.00266431,	0.0178273,	-0.0340902,	0.359214,	0.932462,	0.0328913,	2.52654,	0.111583,	-0.0228159,	-0.0173955,	0.0074734,	-0.346642,	0.57677,	0.680549,	-0.289877
1520295664328345739,	0.0652982,	2.45737,	-0.102353,	-0.0211886,	-0.0210944,	0.0132452,	0.0165717,	-0.0331766,	0.366754,	0.929579,	0.0321047,	2.52643,	0.111795,	-0.0167374,	-0.00250832,	0.00452163,	-0.350959,	0.57663,	0.676334,	-0.294784
1520295664378032109,	0.063936,	2.45649,	-0.102233,	-0.0278005,	-0.0179689,	0.0024419,	0.0178954,	-0.0333627,	0.378232,	0.924936,	0.0322409,	2.5259,	0.11218,	0.00277959,	-0.0107918,	0.00785596,	-0.354513,	0.57412,	0.674076,	-0.300546
1520295664425551340,	0.0633377,	2.45635,	-0.101771,	-0.0127287,	-0.00312419,	0.00982433,	0.0152434,	-0.0325926,	0.384522,	0.922414,	0.0324471,	2.52599,	0.112519,	0.00438719,	0.00192261,	0.00721543,	-0.357628,	0.57149,	0.67216,	-0.306107
